# h (nm)	blurred F_rep (kT)	blurred F_att (kT)	blurred F_spheres (kT)
5	9.42232	-10.5193	-1.09697
5.09	9.28371	-10.471	-1.18729
5.18	9.14818	-10.424	-1.27581
5.27	9.01544	-10.3781	-1.36265
5.36	8.88526	-10.3332	-1.4479
5.45	8.75742	-10.2891	-1.53164
5.54	8.63175	-10.2457	-1.61397
5.63	8.50807	-10.203	-1.69494
5.72	8.38626	-10.1609	-1.77462
5.81	8.26617	-10.1192	-1.85306
5.9	8.14769	-10.078	-1.93031
5.99	8.03073	-10.0371	-2.00642
6.08	7.91597	-9.99725	-2.08128
6.17	7.80336	-9.95828	-2.15493
6.26	7.69273	-9.92014	-2.22741
6.35	7.58397	-9.88274	-2.29878
6.44	7.47694	-9.84601	-2.36907
6.53	7.37155	-9.80987	-2.43832
6.62	7.2677	-9.77427	-2.50657
6.71	7.16531	-9.73915	-2.57383
6.8	7.0643	-9.70445	-2.64015
6.89	6.9646	-9.67014	-2.70554
6.98	6.86615	-9.63618	-2.77002
7.07	6.76922	-9.6028	-2.83358
7.16	6.67383	-9.57005	-2.89623
7.25	6.57988	-9.53786	-2.95798
7.34	6.48731	-9.50617	-3.01886
7.43	6.39605	-9.47493	-3.07889
7.52	6.30604	-9.44412	-3.13808
7.61	6.21723	-9.41367	-3.19644
7.7	6.12957	-9.38357	-3.254
7.79	6.04301	-9.35377	-3.31076
7.88	5.95751	-9.32424	-3.36673
7.97	5.87303	-9.29495	-3.42192
8.06	5.78968	-9.26601	-3.47634
8.15	5.70746	-9.23744	-3.52998
8.24	5.62634	-9.2092	-3.58286
8.33	5.54628	-9.18126	-3.63498
8.42	5.46724	-9.15359	-3.68636
8.51	5.38918	-9.12617	-3.73699
8.6	5.31208	-9.09897	-3.78689
8.69	5.2359	-9.07196	-3.83606
8.78	5.16062	-9.04513	-3.88451
8.87	5.08621	-9.01846	-3.93225
8.96	5.01266	-8.99192	-3.97926
9.05	4.93998	-8.96555	-4.02557
9.14	4.8682	-8.93937	-4.07117
9.23	4.79729	-8.91336	-4.11606
9.32	4.72723	-8.88749	-4.16026
9.41	4.658	-8.86175	-4.20376
9.5	4.58957	-8.83613	-4.24656
9.59	4.52194	-8.81061	-4.28867
9.68	4.45507	-8.78517	-4.3301
9.77	4.38897	-8.75981	-4.37084
9.86	4.32361	-8.73451	-4.4109
9.95	4.25897	-8.70925	-4.45028
10.04	4.19507	-8.68406	-4.48898
10.13	4.13192	-8.65893	-4.52701
10.22	4.06949	-8.63385	-4.56436
10.31	4.00777	-8.60882	-4.60105
10.4	3.94676	-8.58383	-4.63706
10.49	3.88645	-8.55886	-4.67241
10.58	3.82681	-8.5339	-4.70709
10.67	3.76785	-8.50896	-4.74111
10.76	3.70955	-8.48402	-4.77447
10.85	3.6519	-8.45907	-4.80717
10.94	3.59489	-8.4341	-4.83921
11.03	3.53853	-8.40913	-4.8706
11.12	3.48282	-8.38414	-4.90133
11.21	3.42774	-8.35915	-4.93141
11.3	3.37329	-8.33413	-4.96084
11.39	3.31946	-8.30908	-4.98962
11.48	3.26625	-8.284	-5.01775
11.57	3.21365	-8.25889	-5.04524
11.66	3.16165	-8.23373	-5.07208
11.75	3.11025	-8.20853	-5.09828
11.84	3.05943	-8.18328	-5.12384
11.93	3.0092	-8.15797	-5.14876
12.02	2.95956	-8.1326	-5.17305
12.11	2.91049	-8.10718	-5.19669
12.2	2.862	-8.08171	-5.21971
12.29	2.81408	-8.05617	-5.24209
12.38	2.76672	-8.03056	-5.26384
12.47	2.71993	-8.00489	-5.28496
12.56	2.67369	-7.97914	-5.30546
12.65	2.628	-7.95332	-5.32532
12.74	2.58286	-7.92743	-5.34457
12.83	2.53826	-7.90145	-5.36319
12.92	2.4942	-7.87539	-5.38119
13.01	2.45068	-7.84924	-5.39857
13.1	2.40768	-7.82302	-5.41533
13.19	2.36522	-7.7967	-5.43148
13.28	2.32328	-7.7703	-5.44701
13.37	2.28187	-7.7438	-5.46194
13.46	2.24097	-7.71722	-5.47625
13.55	2.20059	-7.69054	-5.48995
13.64	2.16071	-7.66376	-5.50304
13.73	2.12135	-7.63688	-5.51553
13.82	2.08248	-7.6099	-5.52742
13.91	2.04412	-7.58282	-5.53871
14	2.00625	-7.55564	-5.54939
14.09	1.96887	-7.52835	-5.55948
14.18	1.93199	-7.50096	-5.56898
14.27	1.89559	-7.47346	-5.57787
14.36	1.85967	-7.44585	-5.58618
14.45	1.82424	-7.41814	-5.5939
14.54	1.78928	-7.39031	-5.60103
14.63	1.75479	-7.36236	-5.60757
14.72	1.72078	-7.33431	-5.61353
14.81	1.68723	-7.30614	-5.61891
14.9	1.65414	-7.27785	-5.62371
14.99	1.62152	-7.24944	-5.62793
15.08	1.58935	-7.22092	-5.63157
15.17	1.55763	-7.19228	-5.63464
15.26	1.52637	-7.16351	-5.63714
15.35	1.49555	-7.13463	-5.63907
15.44	1.46518	-7.10562	-5.64044
15.53	1.43525	-7.07648	-5.64124
15.62	1.40575	-7.04723	-5.64147
15.71	1.37669	-7.01784	-5.64115
15.8	1.34806	-6.98833	-5.64027
15.89	1.31986	-6.95869	-5.63884
15.98	1.29208	-6.92893	-5.63685
16.07	1.26472	-6.89903	-5.63431
16.16	1.23779	-6.869	-5.63122
16.25	1.21126	-6.83885	-5.62759
16.34	1.18515	-6.80856	-5.62341
16.43	1.15944	-6.77814	-5.61869
16.52	1.13414	-6.74758	-5.61344
16.61	1.10924	-6.71689	-5.60765
16.7	1.08474	-6.68607	-5.60132
16.79	1.06064	-6.6551	-5.59447
16.88	1.03692	-6.62401	-5.58709
16.97	1.01359	-6.59277	-5.57918
17.06	0.990651	-6.5614	-5.57075
17.15	0.968089	-6.52989	-5.5618
17.24	0.945906	-6.49824	-5.55234
17.33	0.924096	-6.46646	-5.54236
17.42	0.902657	-6.43453	-5.53187
17.51	0.881586	-6.40246	-5.52088
17.6	0.860879	-6.37025	-5.50937
17.69	0.840533	-6.3379	-5.49737
17.78	0.820544	-6.30541	-5.48487
17.87	0.800908	-6.27278	-5.47187
17.96	0.781622	-6.24	-5.45838
18.05	0.762683	-6.20709	-5.4444
18.14	0.744088	-6.17402	-5.42994
18.23	0.725832	-6.14082	-5.41499
18.32	0.707912	-6.10747	-5.39956
18.41	0.690325	-6.07398	-5.38365
18.5	0.673066	-6.04034	-5.36728
18.59	0.656134	-6.00656	-5.35043
18.68	0.639523	-5.97264	-5.33312
18.77	0.623231	-5.93857	-5.31534
18.86	0.607254	-5.90436	-5.29711
18.95	0.591588	-5.87001	-5.27842
19.04	0.57623	-5.83551	-5.25928
19.13	0.561175	-5.80086	-5.23969
19.22	0.546422	-5.76607	-5.21965
19.31	0.531965	-5.73114	-5.19918
19.4	0.517802	-5.69607	-5.17826
19.49	0.503928	-5.66085	-5.15692
19.58	0.49034	-5.62549	-5.13515
19.67	0.477035	-5.58998	-5.11295
19.76	0.464009	-5.55433	-5.09033
19.85	0.451258	-5.51855	-5.06729
19.94	0.438779	-5.48261	-5.04383
20.03	0.426568	-5.44654	-5.01997
20.12	0.414622	-5.41032	-4.9957
20.21	0.402936	-5.37397	-4.97103
20.3	0.391507	-5.33747	-4.94596
20.39	0.380332	-5.30084	-4.9205
20.48	0.369407	-5.26406	-4.89465
20.57	0.358729	-5.22715	-4.86842
20.66	0.348293	-5.1901	-4.8418
20.75	0.338097	-5.15291	-4.81481
20.84	0.328136	-5.11558	-4.78744
20.93	0.318408	-5.07811	-4.75971
21.02	0.308908	-5.04051	-4.7316
21.11	0.299633	-5.00277	-4.70314
21.2	0.290579	-4.9649	-4.67432
21.29	0.281743	-4.92689	-4.64515
21.38	0.273122	-4.88876	-4.61564
21.47	0.264712	-4.85049	-4.58578
21.56	0.256509	-4.8121	-4.55559
21.65	0.24851	-4.77358	-4.52507
21.74	0.240711	-4.73492	-4.49421
21.83	0.23311	-4.69614	-4.46303
21.92	0.225702	-4.65723	-4.43153
22.01	0.218484	-4.61819	-4.39971
22.1	0.211454	-4.57902	-4.36757
22.19	0.204606	-4.53974	-4.33514
22.28	0.197939	-4.50035	-4.30241
22.37	0.191448	-4.46085	-4.2694
22.46	0.185131	-4.42123	-4.2361
22.55	0.178984	-4.38151	-4.20252
22.64	0.173004	-4.34167	-4.16867
22.73	0.167188	-4.30173	-4.13454
22.82	0.161532	-4.26169	-4.10016
22.91	0.156033	-4.22154	-4.0655
23	0.150688	-4.18128	-4.03059
23.09	0.145495	-4.14092	-3.99543
23.18	0.140449	-4.10049	-3.96004
23.27	0.135548	-4.05998	-3.92443
23.36	0.130789	-4.0194	-3.88861
23.45	0.126169	-3.97875	-3.85258
23.54	0.121684	-3.93803	-3.81634
23.63	0.117332	-3.89725	-3.77991
23.72	0.11311	-3.8564	-3.74329
23.81	0.109015	-3.8155	-3.70648
23.9	0.105044	-3.77454	-3.66949
23.99	0.101194	-3.73352	-3.63233
24.08	0.0974632	-3.69246	-3.595
24.17	0.0938478	-3.65138	-3.55753
24.26	0.0903453	-3.61029	-3.51994
24.35	0.0869531	-3.56918	-3.48223
24.44	0.0836684	-3.52808	-3.44441
24.53	0.0804888	-3.48697	-3.40648
24.62	0.0774116	-3.44587	-3.36846
24.71	0.0744343	-3.40478	-3.33035
24.8	0.0715544	-3.36371	-3.29216
24.89	0.0687695	-3.32265	-3.25388
24.98	0.0660773	-3.28162	-3.21555
25.07	0.0634753	-3.24062	-3.17715
25.16	0.0609609	-3.19968	-3.13872
25.25	0.0585316	-3.15881	-3.10028
25.34	0.0561854	-3.11802	-3.06183
25.43	0.0539199	-3.07731	-3.02339
25.52	0.0517329	-3.03669	-2.98495
25.61	0.0496224	-2.99616	-2.94654
25.7	0.0475862	-2.95573	-2.90814
25.79	0.0456224	-2.91541	-2.86979
25.88	0.0437288	-2.8752	-2.83147
25.97	0.0419035	-2.83511	-2.79321
26.06	0.0401446	-2.79515	-2.755
26.15	0.0384498	-2.75534	-2.71689
26.24	0.0368171	-2.71569	-2.67887
26.33	0.0352447	-2.67621	-2.64096
26.42	0.0337307	-2.63691	-2.60317
26.51	0.0322735	-2.59779	-2.56551
26.6	0.0308714	-2.55886	-2.52799
26.69	0.0295227	-2.52012	-2.4906
26.78	0.0282257	-2.48159	-2.45336
26.87	0.0269788	-2.44327	-2.41629
26.96	0.0257806	-2.40516	-2.37938
27.05	0.0246295	-2.36727	-2.34264
27.14	0.0235237	-2.32962	-2.3061
27.23	0.0224614	-2.29222	-2.26976
27.32	0.0214414	-2.25508	-2.23364
27.41	0.0204622	-2.2182	-2.19774
27.5	0.0195226	-2.1816	-2.16207
27.59	0.0186211	-2.14526	-2.12664
27.68	0.0177566	-2.10921	-2.09145
27.77	0.0169278	-2.07344	-2.05651
27.86	0.0161335	-2.03796	-2.02183
27.95	0.0153726	-2.00278	-1.98741
28.04	0.0146438	-1.9679	-1.95326
28.13	0.013946	-1.93333	-1.91939
28.22	0.0132776	-1.89909	-1.88581
28.31	0.0126376	-1.86516	-1.85253
28.4	0.0120251	-1.83157	-1.81955
28.49	0.0114392	-1.79831	-1.78687
28.58	0.0108787	-1.76539	-1.75451
28.67	0.0103429	-1.73281	-1.72247
28.76	0.00983087	-1.70058	-1.69075
28.85	0.00934168	-1.66869	-1.65935
28.94	0.00887451	-1.63716	-1.62828
29.03	0.00842854	-1.60597	-1.59755
29.12	0.00800284	-1.57515	-1.56715
29.21	0.00759635	-1.54469	-1.5371
29.3	0.00720833	-1.5146	-1.50739
29.39	0.0068381	-1.48488	-1.47804
29.48	0.00648497	-1.45553	-1.44904
29.57	0.00614829	-1.42654	-1.4204
29.66	0.00582742	-1.39793	-1.39211
29.75	0.00552175	-1.3697	-1.36418
29.84	0.00523066	-1.34184	-1.33661
29.93	0.0049536	-1.31436	-1.30941
30.02	0.00468998	-1.28725	-1.28256
30.11	0.00443921	-1.26053	-1.25609
30.2	0.00420046	-1.23418	-1.22998
30.29	0.00397327	-1.2082	-1.20423
30.38	0.00375717	-1.18261	-1.17885
30.47	0.0035517	-1.15739	-1.15384
30.56	0.00335642	-1.13255	-1.12919
30.65	0.00317092	-1.10809	-1.10491
30.74	0.00299479	-1.084	-1.081
30.83	0.00282762	-1.06028	-1.05745
30.92	0.00266905	-1.03694	-1.03427
31.01	0.00251869	-1.01397	-1.01145
31.1	0.00237618	-0.991365	-0.988988
31.19	0.00224092	-0.969129	-0.966888
31.28	0.00211261	-0.947257	-0.945144
31.37	0.00199096	-0.925747	-0.923756
31.46	0.00187567	-0.904598	-0.902722
31.55	0.00176646	-0.883807	-0.88204
31.64	0.00166307	-0.863371	-0.861708
31.73	0.00156524	-0.843288	-0.841723
31.82	0.00147271	-0.823557	-0.822084
31.91	0.00138525	-0.804172	-0.802787
32	0.00130263	-0.785133	-0.783831
32.09	0.00122462	-0.766436	-0.765212
32.18	0.00115083	-0.748075	-0.746924
32.27	0.00108105	-0.730047	-0.728965
32.36	0.00101512	-0.712348	-0.711333
32.45	0.000952844	-0.694977	-0.694024
32.54	0.000894061	-0.677929	-0.677035
32.63	0.000838608	-0.661202	-0.660363
32.72	0.000786326	-0.644791	-0.644005
32.81	0.000737064	-0.628695	-0.627958
32.9	0.000690677	-0.612908	-0.612217
32.99	0.000647027	-0.597428	-0.596781
33.08	0.000605979	-0.58225	-0.581644
33.17	0.000567293	-0.567369	-0.566802
33.26	0.000530842	-0.552781	-0.55225
33.35	0.000496517	-0.538482	-0.537985
33.44	0.000464217	-0.524469	-0.524004
33.53	0.00043384	-0.510737	-0.510303
33.62	0.000405292	-0.497284	-0.496879
33.71	0.000378483	-0.484106	-0.483728
33.8	0.000353323	-0.4712	-0.470846
33.89	0.00032973	-0.45856	-0.45823
33.98	0.000307623	-0.446184	-0.445877
34.07	0.000286925	-0.434069	-0.433782
34.16	0.000267499	-0.422207	-0.42194
34.25	0.000249262	-0.410596	-0.410346
34.34	0.000232154	-0.399231	-0.398999
34.43	0.000216116	-0.388109	-0.387893
34.52	0.000201093	-0.377227	-0.377026
34.61	0.000187033	-0.366581	-0.366394
34.7	0.000173884	-0.356168	-0.355994
34.79	0.000161598	-0.345984	-0.345822
34.88	0.000150129	-0.336025	-0.335875
34.97	0.000139433	-0.326289	-0.32615
35.06	0.000129468	-0.316772	-0.316642
35.15	0.000120159	-0.307468	-0.307348
35.24	0.000111453	-0.298374	-0.298263
35.33	0.000103319	-0.289487	-0.289384
35.42	9.57253e-05	-0.280803	-0.280707
35.51	8.86429e-05	-0.27232	-0.272231
35.6	8.20437e-05	-0.264034	-0.263952
35.69	7.59007e-05	-0.255942	-0.255866
35.78	7.01886e-05	-0.248041	-0.24797
35.87	6.48829e-05	-0.240327	-0.240263
35.96	5.99606e-05	-0.232799	-0.232739
36.05	5.53996e-05	-0.225452	-0.225397
36.14	5.1162e-05	-0.218283	-0.218232
36.23	4.72156e-05	-0.211289	-0.211241
36.32	4.35442e-05	-0.204465	-0.204422
36.41	4.01323e-05	-0.19781	-0.19777
36.5	3.69649e-05	-0.191321	-0.191284
36.59	3.40279e-05	-0.184995	-0.184961
36.68	3.1308e-05	-0.178829	-0.178798
36.77	2.87924e-05	-0.172822	-0.172793
36.86	2.64689e-05	-0.166969	-0.166942
36.95	2.43261e-05	-0.161268	-0.161244
37.04	2.2353e-05	-0.155717	-0.155695
37.13	2.05315e-05	-0.150312	-0.150292
37.22	1.88427e-05	-0.145051	-0.145032
37.31	1.72787e-05	-0.139931	-0.139913
37.4	1.58323e-05	-0.134948	-0.134933
37.49	1.44962e-05	-0.130102	-0.130088
37.58	1.32639e-05	-0.12539	-0.125376
37.67	1.21291e-05	-0.120808	-0.120796
37.76	1.10857e-05	-0.116356	-0.116345
37.85	1.0128e-05	-0.11203	-0.11202
37.94	9.25065e-06	-0.107828	-0.107819
38.03	8.4486e-06	-0.103749	-0.10374
38.12	7.71385e-06	-0.099788	-0.0997803
38.21	7.03585e-06	-0.0959438	-0.0959367
38.3	6.41109e-06	-0.0922137	-0.0922073
38.39	5.8363e-06	-0.0885957	-0.0885898
38.48	5.30833e-06	-0.0850875	-0.0850822
38.57	4.82424e-06	-0.0816871	-0.0816823
38.66	4.38122e-06	-0.0783924	-0.078388
38.75	3.97663e-06	-0.0752012	-0.0751972
38.84	3.60797e-06	-0.0721114	-0.0721078
38.93	3.27288e-06	-0.069121	-0.0691177
39.02	2.96915e-06	-0.0662279	-0.0662249
39.11	2.6936e-06	-0.0634297	-0.0634271
39.2	2.44059e-06	-0.060724	-0.0607216
39.29	2.2087e-06	-0.0581087	-0.0581064
39.38	1.99655e-06	-0.0555818	-0.0555798
39.47	1.80287e-06	-0.0531415	-0.0531396
39.56	1.62644e-06	-0.0507857	-0.0507841
39.65	1.46611e-06	-0.0485126	-0.0485112
39.74	1.3208e-06	-0.0463203	-0.046319
39.83	1.1895e-06	-0.0442068	-0.0442056
39.92	1.07126e-06	-0.0421702	-0.0421692
40.01	9.65169e-07	-0.0402087	-0.0402078
40.1	8.70126e-07	-0.0383204	-0.0383195
40.19	7.83282e-07	-0.0365027	-0.0365019
40.28	7.04095e-07	-0.034754	-0.0347533
40.37	6.32056e-07	-0.0330725	-0.0330719
40.46	5.66684e-07	-0.0314564	-0.0314559
40.55	5.07526e-07	-0.029904	-0.0299035
40.64	4.54156e-07	-0.0284136	-0.0284131
40.73	4.06174e-07	-0.0269834	-0.026983
40.82	3.63202e-07	-0.0256118	-0.0256114
40.91	3.24889e-07	-0.024297	-0.0242967
41	2.90902e-07	-0.0230374	-0.0230371
41.09	2.6093e-07	-0.0218314	-0.0218311
41.18	2.33645e-07	-0.0206768	-0.0206766
41.27	2.08863e-07	-0.0195721	-0.0195719
41.36	1.86417e-07	-0.0185158	-0.0185156
41.45	1.66143e-07	-0.0175063	-0.0175061
41.54	1.47893e-07	-0.0165422	-0.016542
41.63	1.31524e-07	-0.0156219	-0.0156218
41.72	1.16903e-07	-0.014744	-0.0147439
41.81	1.03904e-07	-0.0139071	-0.013907
41.9	9.24125e-08	-0.0131098	-0.0131097
41.99	8.23173e-08	-0.0123506	-0.0123505
42.08	7.35162e-08	-0.0116282	-0.0116282
42.17	6.55678e-08	-0.010941	-0.010941
42.26	5.83698e-08	-0.0102876	-0.0102876
42.35	5.18702e-08	-0.00966681	-0.00966676
42.44	4.60205e-08	-0.00907734	-0.0090773
42.53	4.0775e-08	-0.00851802	-0.00851798
42.62	3.60906e-08	-0.00798769	-0.00798765
42.71	3.19272e-08	-0.00748518	-0.00748515
42.8	2.8247e-08	-0.00700938	-0.00700935
42.89	2.50147e-08	-0.00655919	-0.00655917
42.98	2.21974e-08	-0.00613356	-0.00613353
43.07	1.97641e-08	-0.00573143	-0.00573141
43.16	1.75868e-08	-0.00535157	-0.00535155
43.25	1.56187e-08	-0.00499296	-0.00499294
43.34	1.38455e-08	-0.00465467	-0.00465466
43.43	1.22533e-08	-0.0043358	-0.00433578
43.52	1.08295e-08	-0.00403547	-0.00403546
43.61	9.56193e-09	-0.00375283	-0.00375282
43.7	8.43936e-09	-0.00348705	-0.00348705
43.79	7.45124e-09	-0.00323735	-0.00323734
43.88	6.58767e-09	-0.00300295	-0.00300294
43.97	5.83942e-09	-0.00278309	-0.00278308
44.06	5.19787e-09	-0.00257707	-0.00257706
44.15	4.62904e-09	-0.00238403	-0.00238402
44.24	4.11473e-09	-0.00220325	-0.00220324
44.33	3.65118e-09	-0.0020341	-0.0020341
44.42	3.23485e-09	-0.00187598	-0.00187598
44.51	2.86241e-09	-0.00172832	-0.00172832
44.6	2.53074e-09	-0.00159056	-0.00159056
44.69	2.23691e-09	-0.00146216	-0.00146216
44.78	1.97818e-09	-0.00134262	-0.00134261
44.87	1.75198e-09	-0.00123143	-0.00123143
44.96	1.55591e-09	-0.00112814	-0.00112814
45.05	1.38771e-09	-0.00103228	-0.00103228
45.14	1.23909e-09	-0.000943344	-0.000943343
45.23	1.10364e-09	-0.00086084	-0.000860839
45.32	9.80485e-10	-0.000784395	-0.000784394
45.41	8.6879e-10	-0.000713652	-0.000713651
45.5	7.67764e-10	-0.000648268	-0.000648267
45.59	6.76665e-10	-0.000587918	-0.000587918
45.68	5.94793e-10	-0.000532293	-0.000532292
45.77	5.21494e-10	-0.000481097	-0.000481096
45.86	4.5615e-10	-0.00043405	-0.00043405
45.95	3.98183e-10	-0.000390889	-0.000390888
46.04	3.47051e-10	-0.000351359	-0.000351359
46.13	3.01665e-10	-0.000315165	-0.000315165
46.22	2.60875e-10	-0.00028201	-0.00028201
46.31	2.24347e-10	-0.000251695	-0.000251695
46.4	1.91771e-10	-0.000224029	-0.000224029
46.49	1.62852e-10	-0.000198834	-0.000198834
46.58	1.37317e-10	-0.00017594	-0.00017594
46.67	1.14911e-10	-0.000155188	-0.000155188
46.76	9.53934e-11	-0.000136428	-0.000136428
46.85	7.85416e-11	-0.000119518	-0.000119518
46.94	6.41474e-11	-0.000104326	-0.000104325
47.03	5.20165e-11	-9.07256e-05	-9.07256e-05
47.12	4.1787e-11	-7.85665e-05	-7.85665e-05
47.21	3.29435e-11	-6.76723e-05	-6.76723e-05
47.3	2.53767e-11	-5.79497e-05	-5.79497e-05
47.39	1.8985e-11	-4.93114e-05	-4.93114e-05
47.48	1.36737e-11	-4.16757e-05	-4.16756e-05
47.57	9.35518e-12	-3.49659e-05	-3.49659e-05
47.66	5.9478e-12	-2.91108e-05	-2.91108e-05
47.75	3.37597e-12	-2.40435e-05	-2.40435e-05
47.84	1.56963e-12	-1.9702e-05	-1.9702e-05
47.93	4.64184e-13	-1.60283e-05	-1.60283e-05
48.02	-2.22045e-16	-1.29685e-05	-1.29685e-05
48.11	-2.22045e-16	-1.04328e-05	-1.04328e-05
48.2	-2.22045e-16	-8.23941e-06	-8.23941e-06
48.29	-2.22045e-16	-6.36115e-06	-6.36115e-06
48.38	-2.22045e-16	-4.77282e-06	-4.77282e-06
48.47	-2.22045e-16	-3.45097e-06	-3.45097e-06
48.56	-2.22045e-16	-2.37381e-06	-2.37381e-06
48.65	-2.22045e-16	-1.52109e-06	-1.52109e-06
48.74	-2.22045e-16	-8.74076e-07	-8.74076e-07
48.83	-2.22045e-16	-4.15399e-07	-4.15399e-07
48.92	-2.22045e-16	-1.2899e-07	-1.2899e-07
49.01	-2.22045e-16	0	-2.22045e-16
49.1	-2.22045e-16	0	-2.22045e-16
49.19	-2.22045e-16	0	-2.22045e-16
49.28	-2.22045e-16	0	-2.22045e-16
49.37	-2.22045e-16	0	-2.22045e-16
49.46	-2.22045e-16	0	-2.22045e-16
49.55	-2.22045e-16	0	-2.22045e-16
49.64	-2.22045e-16	0	-2.22045e-16
49.73	-2.22045e-16	0	-2.22045e-16
49.82	-2.22045e-16	0	-2.22045e-16
49.91	-2.22045e-16	0	-2.22045e-16
50	-2.22045e-16	0	-2.22045e-16
50.09	-2.22045e-16	0	-2.22045e-16
50.18	-2.22045e-16	0	-2.22045e-16
50.27	-2.22045e-16	0	-2.22045e-16
50.36	-2.22045e-16	0	-2.22045e-16
50.45	-2.22045e-16	0	-2.22045e-16
50.54	-2.22045e-16	0	-2.22045e-16
50.63	-2.22045e-16	0	-2.22045e-16
50.72	-2.22045e-16	0	-2.22045e-16
50.81	-2.22045e-16	0	-2.22045e-16
50.9	-2.22045e-16	0	-2.22045e-16
50.99	-2.22045e-16	0	-2.22045e-16
51.08	-2.22045e-16	0	-2.22045e-16
51.17	-2.22045e-16	0	-2.22045e-16
51.26	-2.22045e-16	0	-2.22045e-16
51.35	-2.22045e-16	0	-2.22045e-16
51.44	-2.22045e-16	0	-2.22045e-16
51.53	-2.22045e-16	0	-2.22045e-16
51.62	-2.22045e-16	0	-2.22045e-16
51.71	-2.22045e-16	0	-2.22045e-16
51.8	-2.22045e-16	0	-2.22045e-16
51.89	-2.22045e-16	0	-2.22045e-16
51.98	-2.22045e-16	0	-2.22045e-16
52.07	-2.22045e-16	0	-2.22045e-16
52.16	-2.22045e-16	0	-2.22045e-16
52.25	-2.22045e-16	0	-2.22045e-16
52.34	-2.22045e-16	0	-2.22045e-16
52.43	-2.22045e-16	0	-2.22045e-16
52.52	-2.22045e-16	0	-2.22045e-16
52.61	-2.22045e-16	0	-2.22045e-16
52.7	-2.22045e-16	0	-2.22045e-16
52.79	-2.22045e-16	0	-2.22045e-16
52.88	-2.22045e-16	0	-2.22045e-16
52.97	-2.22045e-16	0	-2.22045e-16
53.06	-2.22045e-16	0	-2.22045e-16
53.15	-2.22045e-16	0	-2.22045e-16
53.24	-2.22045e-16	0	-2.22045e-16
53.33	-2.22045e-16	0	-2.22045e-16
53.42	-2.22045e-16	0	-2.22045e-16
53.51	-2.22045e-16	0	-2.22045e-16
53.6	-2.22045e-16	0	-2.22045e-16
53.69	-2.22045e-16	0	-2.22045e-16
53.78	-2.22045e-16	0	-2.22045e-16
53.87	-2.22045e-16	0	-2.22045e-16
53.96	-2.22045e-16	0	-2.22045e-16
54.05	-2.22045e-16	0	-2.22045e-16
54.14	-2.22045e-16	0	-2.22045e-16
54.23	-2.22045e-16	0	-2.22045e-16
54.32	-2.22045e-16	0	-2.22045e-16
54.41	-2.22045e-16	0	-2.22045e-16
54.5	-2.22045e-16	0	-2.22045e-16
54.59	-2.22045e-16	0	-2.22045e-16
54.68	-2.22045e-16	0	-2.22045e-16
54.77	-2.22045e-16	0	-2.22045e-16
54.86	-2.22045e-16	0	-2.22045e-16
54.95	-2.22045e-16	0	-2.22045e-16
55.04	-2.22045e-16	0	-2.22045e-16
55.13	-2.22045e-16	0	-2.22045e-16
55.22	-2.22045e-16	0	-2.22045e-16
55.31	-2.22045e-16	0	-2.22045e-16
55.4	-2.22045e-16	0	-2.22045e-16
55.49	-2.22045e-16	0	-2.22045e-16
55.58	-2.22045e-16	0	-2.22045e-16
55.67	-2.22045e-16	0	-2.22045e-16
55.76	-2.22045e-16	0	-2.22045e-16
55.85	-2.22045e-16	0	-2.22045e-16
