# h (nm)	blurred F_rep (kT)	blurred F_att (kT)	blurred F_spheres (kT)
5	9.42232	-6.84601	2.57631
5.09	9.28371	-6.81077	2.47294
5.18	9.14818	-6.77644	2.37174
5.27	9.01544	-6.74289	2.27255
5.36	8.88526	-6.71	2.17526
5.45	8.75742	-6.67769	2.07973
5.54	8.63175	-6.64588	1.98587
5.63	8.50807	-6.61449	1.89359
5.72	8.38626	-6.58346	1.80279
5.81	8.26617	-6.55275	1.71341
5.9	8.14769	-6.52231	1.62539
5.99	8.03073	-6.49208	1.53865
6.08	7.91597	-6.46256	1.45342
6.17	7.80336	-6.4337	1.36965
6.26	7.69273	-6.40545	1.28728
6.35	7.58397	-6.37773	1.20623
6.44	7.47694	-6.35049	1.12645
6.53	7.37155	-6.32367	1.04788
6.62	7.2677	-6.29723	0.970468
6.71	7.16531	-6.27113	0.89418
6.8	7.0643	-6.24533	0.818972
6.89	6.9646	-6.21979	0.74481
6.98	6.86615	-6.19449	0.671659
7.07	6.76922	-6.16964	0.59958
7.16	6.67383	-6.14527	0.52856
7.25	6.57988	-6.12131	0.458564
7.34	6.48731	-6.09775	0.389559
7.43	6.39605	-6.07453	0.321516
7.52	6.30604	-6.05163	0.254409
7.61	6.21723	-6.02902	0.188214
7.7	6.12957	-6.00666	0.122909
7.79	6.04301	-5.98454	0.058474
7.88	5.95751	-5.96262	-0.00510986
7.97	5.87303	-5.94089	-0.0678592
8.06	5.78968	-5.91944	-0.129763
8.15	5.70746	-5.89829	-0.190825
8.24	5.62634	-5.87741	-0.251063
8.33	5.54628	-5.85677	-0.310491
8.42	5.46724	-5.83636	-0.369124
8.51	5.38918	-5.81615	-0.426974
8.6	5.31208	-5.79613	-0.484053
8.69	5.2359	-5.77627	-0.540373
8.78	5.16062	-5.75656	-0.595942
8.87	5.08621	-5.73698	-0.650771
8.96	5.01266	-5.71752	-0.704867
9.05	4.93998	-5.69821	-0.758233
9.14	4.8682	-5.67907	-0.810869
9.23	4.79729	-5.66008	-0.862784
9.32	4.72723	-5.64122	-0.913986
9.41	4.658	-5.62248	-0.964481
9.5	4.58957	-5.60385	-1.01428
9.59	4.52194	-5.58531	-1.06338
9.68	4.45507	-5.56686	-1.11179
9.77	4.38897	-5.54848	-1.15952
9.86	4.32361	-5.53017	-1.20657
9.95	4.25897	-5.51191	-1.25294
10.04	4.19507	-5.49372	-1.29865
10.13	4.13192	-5.4756	-1.34368
10.22	4.06949	-5.45754	-1.38805
10.31	4.00777	-5.43953	-1.43176
10.4	3.94676	-5.42157	-1.47481
10.49	3.88645	-5.40365	-1.51721
10.58	3.82681	-5.38577	-1.55895
10.67	3.76785	-5.3679	-1.60005
10.76	3.70955	-5.35006	-1.64051
10.85	3.6519	-5.33223	-1.68033
10.94	3.59489	-5.3144	-1.7195
11.03	3.53853	-5.29658	-1.75805
11.12	3.48282	-5.27877	-1.79595
11.21	3.42774	-5.26097	-1.83323
11.3	3.37329	-5.24317	-1.86988
11.39	3.31946	-5.22537	-1.90591
11.48	3.26625	-5.20756	-1.94131
11.57	3.21365	-5.18974	-1.97609
11.66	3.16165	-5.17191	-2.01025
11.75	3.11025	-5.15405	-2.0438
11.84	3.05943	-5.13617	-2.07674
11.93	3.0092	-5.11826	-2.10906
12.02	2.95956	-5.10033	-2.14077
12.11	2.91049	-5.08237	-2.17188
12.2	2.862	-5.06438	-2.20238
12.29	2.81408	-5.04636	-2.23228
12.38	2.76672	-5.02831	-2.26159
12.47	2.71993	-5.01021	-2.29029
12.56	2.67369	-4.99208	-2.3184
12.65	2.628	-4.97391	-2.34591
12.74	2.58286	-4.95569	-2.37283
12.83	2.53826	-4.93743	-2.39917
12.92	2.4942	-4.91911	-2.42491
13.01	2.45068	-4.90075	-2.45007
13.1	2.40768	-4.88234	-2.47465
13.19	2.36522	-4.86387	-2.49865
13.28	2.32328	-4.84536	-2.52207
13.37	2.28187	-4.82679	-2.54492
13.46	2.24097	-4.80816	-2.56719
13.55	2.20059	-4.78947	-2.58889
13.64	2.16071	-4.77073	-2.61002
13.73	2.12135	-4.75193	-2.63058
13.82	2.08248	-4.73306	-2.65058
13.91	2.04412	-4.71413	-2.67001
14	2.00625	-4.69513	-2.68889
14.09	1.96887	-4.67608	-2.7072
14.18	1.93199	-4.65695	-2.72497
14.27	1.89559	-4.63776	-2.74217
14.36	1.85967	-4.6185	-2.75883
14.45	1.82424	-4.59918	-2.77494
14.54	1.78928	-4.57978	-2.7905
14.63	1.75479	-4.56032	-2.80552
14.72	1.72078	-4.54078	-2.82
14.81	1.68723	-4.52117	-2.83394
14.9	1.65414	-4.50148	-2.84734
14.99	1.62152	-4.48173	-2.86021
15.08	1.58935	-4.4619	-2.87255
15.17	1.55763	-4.44199	-2.88436
15.26	1.52637	-4.42201	-2.89564
15.35	1.49555	-4.40195	-2.9064
15.44	1.46518	-4.38182	-2.91664
15.53	1.43525	-4.36161	-2.92636
15.62	1.40575	-4.34132	-2.93557
15.71	1.37669	-4.32096	-2.94426
15.8	1.34806	-4.30051	-2.95245
15.89	1.31986	-4.27998	-2.96013
15.98	1.29208	-4.25938	-2.9673
16.07	1.26472	-4.23869	-2.97397
16.16	1.23779	-4.21793	-2.98014
16.25	1.21126	-4.19708	-2.98582
16.34	1.18515	-4.17615	-2.99101
16.43	1.15944	-4.15515	-2.9957
16.52	1.13414	-4.13405	-2.99991
16.61	1.10924	-4.11288	-3.00364
16.7	1.08474	-4.09163	-3.00688
16.79	1.06064	-4.07029	-3.00965
16.88	1.03692	-4.04887	-3.01195
16.97	1.01359	-4.02736	-3.01377
17.06	0.990651	-4.00578	-3.01513
17.15	0.968089	-3.98411	-3.01602
17.24	0.945906	-3.96235	-3.01645
17.33	0.924096	-3.94052	-3.01642
17.42	0.902657	-3.9186	-3.01594
17.51	0.881586	-3.89659	-3.01501
17.6	0.860879	-3.87451	-3.01363
17.69	0.840533	-3.85234	-3.0118
17.78	0.820544	-3.83008	-3.00954
17.87	0.800908	-3.80775	-3.00684
17.96	0.781622	-3.78533	-3.00371
18.05	0.762683	-3.76283	-3.00015
18.14	0.744088	-3.74024	-2.99616
18.23	0.725832	-3.71758	-2.99175
18.32	0.707912	-3.69483	-2.98692
18.41	0.690325	-3.672	-2.98168
18.5	0.673066	-3.64909	-2.97602
18.59	0.656134	-3.6261	-2.96996
18.68	0.639523	-3.60303	-2.9635
18.77	0.623231	-3.57988	-2.95664
18.86	0.607254	-3.55664	-2.94939
18.95	0.591588	-3.53333	-2.94175
19.04	0.57623	-3.50995	-2.93372
19.13	0.561175	-3.48648	-2.9253
19.22	0.546422	-3.46294	-2.91651
19.31	0.531965	-3.43932	-2.90735
19.4	0.517802	-3.41562	-2.89782
19.49	0.503928	-3.39185	-2.88793
19.58	0.49034	-3.36801	-2.87767
19.67	0.477035	-3.34409	-2.86706
19.76	0.464009	-3.32011	-2.8561
19.85	0.451258	-3.29605	-2.84479
19.94	0.438779	-3.27192	-2.83314
20.03	0.426568	-3.24772	-2.82115
20.12	0.414622	-3.22345	-2.80883
20.21	0.402936	-3.19912	-2.79619
20.3	0.391507	-3.17472	-2.78322
20.39	0.380332	-3.15026	-2.76993
20.48	0.369407	-3.12573	-2.75633
20.57	0.358729	-3.10115	-2.74242
20.66	0.348293	-3.0765	-2.72821
20.75	0.338097	-3.05179	-2.7137
20.84	0.328136	-3.02703	-2.69889
20.93	0.318408	-3.00221	-2.6838
21.02	0.308908	-2.97734	-2.66843
21.11	0.299633	-2.95241	-2.65278
21.2	0.290579	-2.92743	-2.63685
21.29	0.281743	-2.9024	-2.62066
21.38	0.273122	-2.87733	-2.60421
21.47	0.264712	-2.85221	-2.5875
21.56	0.256509	-2.82705	-2.57054
21.65	0.24851	-2.80184	-2.55333
21.74	0.240711	-2.7766	-2.53589
21.83	0.23311	-2.75132	-2.51821
21.92	0.225702	-2.726	-2.5003
22.01	0.218484	-2.70064	-2.48216
22.1	0.211454	-2.67526	-2.4638
22.19	0.204606	-2.64984	-2.44524
22.28	0.197939	-2.62441	-2.42647
22.37	0.191448	-2.59894	-2.4075
22.46	0.185131	-2.57346	-2.38833
22.55	0.178984	-2.54796	-2.36898
22.64	0.173004	-2.52244	-2.34944
22.73	0.167188	-2.49691	-2.32973
22.82	0.161532	-2.47137	-2.30984
22.91	0.156033	-2.44582	-2.28979
23	0.150688	-2.42026	-2.26957
23.09	0.145495	-2.3947	-2.24921
23.18	0.140449	-2.36914	-2.22869
23.27	0.135548	-2.34359	-2.20804
23.36	0.130789	-2.31805	-2.18726
23.45	0.126169	-2.29252	-2.16635
23.54	0.121684	-2.26701	-2.14533
23.63	0.117332	-2.24152	-2.12419
23.72	0.11311	-2.21604	-2.10294
23.81	0.109015	-2.1906	-2.08158
23.9	0.105044	-2.16518	-2.06013
23.99	0.101194	-2.13979	-2.03859
24.08	0.0974632	-2.11443	-2.01697
24.17	0.0938478	-2.08912	-1.99528
24.26	0.0903453	-2.06386	-1.97351
24.35	0.0869531	-2.03865	-1.9517
24.44	0.0836684	-2.01349	-1.92983
24.53	0.0804888	-1.9884	-1.90791
24.62	0.0774116	-1.96336	-1.88595
24.71	0.0744343	-1.93839	-1.86396
24.8	0.0715544	-1.91349	-1.84194
24.89	0.0687695	-1.88866	-1.81989
24.98	0.0660773	-1.86391	-1.79783
25.07	0.0634753	-1.83924	-1.77576
25.16	0.0609609	-1.81466	-1.7537
25.25	0.0585316	-1.79017	-1.73164
25.34	0.0561854	-1.76578	-1.7096
25.43	0.0539199	-1.7415	-1.68758
25.52	0.0517329	-1.71732	-1.66559
25.61	0.0496224	-1.69325	-1.64363
25.7	0.0475862	-1.6693	-1.62171
25.79	0.0456224	-1.64546	-1.59983
25.88	0.0437288	-1.62174	-1.57801
25.97	0.0419035	-1.59815	-1.55624
26.06	0.0401446	-1.57468	-1.53453
26.15	0.0384498	-1.55135	-1.5129
26.24	0.0368171	-1.52816	-1.49134
26.33	0.0352447	-1.50512	-1.46987
26.42	0.0337307	-1.48222	-1.44849
26.51	0.0322735	-1.45948	-1.42721
26.6	0.0308714	-1.43689	-1.40602
26.69	0.0295227	-1.41446	-1.38494
26.78	0.0282257	-1.39219	-1.36397
26.87	0.0269788	-1.37009	-1.34311
26.96	0.0257806	-1.34815	-1.32237
27.05	0.0246295	-1.32638	-1.30175
27.14	0.0235237	-1.30479	-1.28126
27.23	0.0224614	-1.28338	-1.26091
27.32	0.0214414	-1.26215	-1.24071
27.41	0.0204622	-1.2411	-1.22064
27.5	0.0195226	-1.22025	-1.20073
27.59	0.0186211	-1.19958	-1.18096
27.68	0.0177566	-1.17911	-1.16135
27.77	0.0169278	-1.15883	-1.1419
27.86	0.0161335	-1.13875	-1.12261
27.95	0.0153726	-1.11886	-1.10349
28.04	0.0146438	-1.09918	-1.08453
28.13	0.013946	-1.07969	-1.06575
28.22	0.0132776	-1.06042	-1.04714
28.31	0.0126376	-1.04135	-1.02871
28.4	0.0120251	-1.02249	-1.01047
28.49	0.0114392	-1.00384	-0.992403
28.58	0.0108787	-0.985405	-0.974526
28.67	0.0103429	-0.96718	-0.956837
28.76	0.00983087	-0.949167	-0.939336
28.85	0.00934168	-0.931368	-0.922027
28.94	0.00887451	-0.913784	-0.904909
29.03	0.00842854	-0.896414	-0.887986
29.12	0.00800284	-0.87926	-0.871257
29.21	0.00759635	-0.862324	-0.854728
29.3	0.00720833	-0.845605	-0.838397
29.39	0.0068381	-0.829104	-0.822266
29.48	0.00648497	-0.812821	-0.806336
29.57	0.00614829	-0.796755	-0.790607
29.66	0.00582742	-0.780906	-0.775079
29.75	0.00552175	-0.765275	-0.759753
29.84	0.00523066	-0.749859	-0.744629
29.93	0.0049536	-0.73466	-0.729707
30.02	0.00468998	-0.719677	-0.714987
30.11	0.00443921	-0.704908	-0.700469
30.2	0.00420046	-0.690355	-0.686154
30.29	0.00397327	-0.676015	-0.672042
30.38	0.00375717	-0.661888	-0.658131
30.47	0.0035517	-0.647974	-0.644422
30.56	0.00335642	-0.63427	-0.630914
30.65	0.00317092	-0.620776	-0.617605
30.74	0.00299479	-0.607491	-0.604497
30.83	0.00282762	-0.594414	-0.591586
30.92	0.00266905	-0.581543	-0.578874
31.01	0.00251869	-0.568876	-0.566358
31.1	0.00237618	-0.556414	-0.554037
31.19	0.00224092	-0.544153	-0.541912
31.28	0.00211261	-0.532092	-0.529979
31.37	0.00199096	-0.52023	-0.518239
31.46	0.00187567	-0.508565	-0.506689
31.55	0.00176646	-0.497095	-0.495329
31.64	0.00166307	-0.48582	-0.484157
31.73	0.00156524	-0.474736	-0.473171
31.82	0.00147271	-0.463843	-0.462371
31.91	0.00138525	-0.453139	-0.451753
32	0.00130263	-0.442621	-0.441318
32.09	0.00122462	-0.432288	-0.431064
32.18	0.00115083	-0.422138	-0.420987
32.27	0.00108105	-0.412168	-0.411087
32.36	0.00101512	-0.402377	-0.401361
32.45	0.000952844	-0.392762	-0.391809
32.54	0.000894061	-0.383322	-0.382428
32.63	0.000838608	-0.374055	-0.373217
32.72	0.000786326	-0.364959	-0.364173
32.81	0.000737064	-0.356032	-0.355295
32.9	0.000690677	-0.347272	-0.346581
32.99	0.000647027	-0.338677	-0.33803
33.08	0.000605979	-0.330244	-0.329638
33.17	0.000567293	-0.321972	-0.321405
33.26	0.000530842	-0.313858	-0.313327
33.35	0.000496517	-0.3059	-0.305404
33.44	0.000464217	-0.298097	-0.297632
33.53	0.00043384	-0.290445	-0.290011
33.62	0.000405292	-0.282944	-0.282539
33.71	0.000378483	-0.275591	-0.275213
33.8	0.000353323	-0.268385	-0.268031
33.89	0.00032973	-0.261322	-0.260993
33.98	0.000307623	-0.254402	-0.254095
34.07	0.000286925	-0.247623	-0.247336
34.16	0.000267499	-0.240981	-0.240714
34.25	0.000249262	-0.234475	-0.234226
34.34	0.000232154	-0.228103	-0.227871
34.43	0.000216116	-0.221863	-0.221647
34.52	0.000201093	-0.215753	-0.215552
34.61	0.000187033	-0.209772	-0.209585
34.7	0.000173884	-0.203917	-0.203743
34.79	0.000161598	-0.198186	-0.198025
34.88	0.000150129	-0.192579	-0.192429
34.97	0.000139433	-0.187092	-0.186953
35.06	0.000129468	-0.181725	-0.181595
35.15	0.000120159	-0.176474	-0.176354
35.24	0.000111453	-0.171339	-0.171227
35.33	0.000103319	-0.166316	-0.166213
35.42	9.57253e-05	-0.161406	-0.16131
35.51	8.86429e-05	-0.156605	-0.156516
35.6	8.20437e-05	-0.151913	-0.151831
35.69	7.59007e-05	-0.147327	-0.147251
35.78	7.01886e-05	-0.142846	-0.142776
35.87	6.48829e-05	-0.138469	-0.138404
35.96	5.99606e-05	-0.134194	-0.134134
36.05	5.53996e-05	-0.130019	-0.129963
36.14	5.1162e-05	-0.125942	-0.125891
36.23	4.72156e-05	-0.121961	-0.121914
36.32	4.35442e-05	-0.118076	-0.118032
36.41	4.01323e-05	-0.114284	-0.114244
36.5	3.69649e-05	-0.110584	-0.110547
36.59	3.40279e-05	-0.106975	-0.106941
36.68	3.1308e-05	-0.103455	-0.103424
36.77	2.87924e-05	-0.100023	-0.0999946
36.86	2.64689e-05	-0.0966776	-0.0966512
36.95	2.43261e-05	-0.0934169	-0.0933926
37.04	2.2353e-05	-0.0902397	-0.0902174
37.13	2.05315e-05	-0.0871445	-0.087124
37.22	1.88427e-05	-0.0841295	-0.0841107
37.31	1.72787e-05	-0.0811936	-0.0811763
37.4	1.58323e-05	-0.0783353	-0.0783195
37.49	1.44962e-05	-0.0755535	-0.075539
37.58	1.32639e-05	-0.0728467	-0.0728335
37.67	1.21291e-05	-0.0702138	-0.0702017
37.76	1.10857e-05	-0.0676535	-0.0676425
37.85	1.0128e-05	-0.0651646	-0.0651544
37.94	9.25065e-06	-0.0627456	-0.0627364
38.03	8.4486e-06	-0.0603955	-0.0603871
38.12	7.71385e-06	-0.0581129	-0.0581051
38.21	7.03585e-06	-0.0558961	-0.0558891
38.3	6.41109e-06	-0.053744	-0.0537376
38.39	5.8363e-06	-0.0516555	-0.0516497
38.48	5.30833e-06	-0.0496294	-0.0496241
38.57	4.82424e-06	-0.0476645	-0.0476597
38.66	4.38122e-06	-0.0457597	-0.0457553
38.75	3.97663e-06	-0.0439137	-0.0439097
38.84	3.60797e-06	-0.0421255	-0.0421219
38.93	3.27288e-06	-0.0403939	-0.0403906
39.02	2.96915e-06	-0.0387177	-0.0387147
39.11	2.6936e-06	-0.0370957	-0.037093
39.2	2.44059e-06	-0.0355266	-0.0355241
39.29	2.2087e-06	-0.0340092	-0.034007
39.38	1.99655e-06	-0.0325424	-0.0325404
39.47	1.80287e-06	-0.0311251	-0.0311233
39.56	1.62644e-06	-0.0297564	-0.0297547
39.65	1.46611e-06	-0.028435	-0.0284335
39.74	1.3208e-06	-0.0271599	-0.0271586
39.83	1.1895e-06	-0.0259301	-0.0259289
39.92	1.07126e-06	-0.0247445	-0.0247435
40.01	9.65169e-07	-0.0236021	-0.0236011
40.1	8.70126e-07	-0.0225017	-0.0225008
40.19	7.83282e-07	-0.021442	-0.0214412
40.28	7.04095e-07	-0.0204221	-0.0204214
40.37	6.32056e-07	-0.019441	-0.0194403
40.46	5.66684e-07	-0.0184976	-0.018497
40.55	5.07526e-07	-0.017591	-0.0175904
40.64	4.54156e-07	-0.0167201	-0.0167197
40.73	4.06174e-07	-0.0158841	-0.0158837
40.82	3.63202e-07	-0.0150819	-0.0150816
40.91	3.24889e-07	-0.0143127	-0.0143124
41	2.90902e-07	-0.0135754	-0.0135751
41.09	2.6093e-07	-0.0128691	-0.0128689
41.18	2.33645e-07	-0.0121927	-0.0121925
41.27	2.08863e-07	-0.0115452	-0.011545
41.36	1.86417e-07	-0.0109259	-0.0109257
41.45	1.66143e-07	-0.0103337	-0.0103335
41.54	1.47893e-07	-0.0097679	-0.00976776
41.63	1.31524e-07	-0.00922761	-0.00922748
41.72	1.16903e-07	-0.00871199	-0.00871187
41.81	1.03904e-07	-0.00822023	-0.00822012
41.9	9.24125e-08	-0.0077515	-0.00775141
41.99	8.23173e-08	-0.00730503	-0.00730494
42.08	7.35162e-08	-0.00688001	-0.00687994
42.17	6.55678e-08	-0.00647552	-0.00647545
42.26	5.83698e-08	-0.00609078	-0.00609072
42.35	5.18702e-08	-0.00572508	-0.00572503
42.44	4.60205e-08	-0.00537771	-0.00537766
42.53	4.0775e-08	-0.00504797	-0.00504793
42.62	3.60906e-08	-0.00473519	-0.00473516
42.71	3.19272e-08	-0.00443871	-0.00443868
42.8	2.8247e-08	-0.00415787	-0.00415785
42.89	2.50147e-08	-0.00389205	-0.00389202
42.98	2.21974e-08	-0.00364061	-0.00364059
43.07	1.97641e-08	-0.00340297	-0.00340295
43.16	1.75868e-08	-0.00317841	-0.00317839
43.25	1.56187e-08	-0.00296633	-0.00296631
43.34	1.38455e-08	-0.00276619	-0.00276618
43.43	1.22533e-08	-0.00257747	-0.00257746
43.52	1.08295e-08	-0.00239966	-0.00239965
43.61	9.56193e-09	-0.00223226	-0.00223225
43.7	8.43936e-09	-0.0020748	-0.00207479
43.79	7.45124e-09	-0.00192679	-0.00192679
43.88	6.58767e-09	-0.00178781	-0.0017878
43.97	5.83942e-09	-0.0016574	-0.00165739
44.06	5.19787e-09	-0.00153515	-0.00153514
44.15	4.62904e-09	-0.00142056	-0.00142056
44.24	4.11473e-09	-0.00131321	-0.00131321
44.33	3.65118e-09	-0.00121274	-0.00121274
44.42	3.23485e-09	-0.00111879	-0.00111879
44.51	2.86241e-09	-0.00103102	-0.00103102
44.6	2.53074e-09	-0.000949108	-0.000949106
44.69	2.23691e-09	-0.000872736	-0.000872734
44.78	1.97818e-09	-0.000801605	-0.000801603
44.87	1.75198e-09	-0.000735425	-0.000735423
44.96	1.55591e-09	-0.00067392	-0.000673919
45.05	1.38771e-09	-0.000616826	-0.000616825
45.14	1.23909e-09	-0.000563833	-0.000563832
45.23	1.10364e-09	-0.000514659	-0.000514658
45.32	9.80485e-10	-0.000469082	-0.000469081
45.41	8.6879e-10	-0.000426891	-0.00042689
45.5	7.67764e-10	-0.000387883	-0.000387883
45.59	6.76665e-10	-0.000351868	-0.000351867
45.68	5.94793e-10	-0.00031866	-0.00031866
45.77	5.21494e-10	-0.000288087	-0.000288087
45.86	4.5615e-10	-0.000259983	-0.000259983
45.95	3.98183e-10	-0.000234191	-0.000234191
46.04	3.47051e-10	-0.000210562	-0.000210562
46.13	3.01665e-10	-0.000188919	-0.000188919
46.22	2.60875e-10	-0.000169088	-0.000169088
46.31	2.24347e-10	-0.00015095	-0.00015095
46.4	1.91771e-10	-0.000134392	-0.000134392
46.49	1.62852e-10	-0.000119309	-0.000119308
46.58	1.37317e-10	-0.000105598	-0.000105598
46.67	1.14911e-10	-9.31666e-05	-9.31664e-05
46.76	9.53934e-11	-8.19244e-05	-8.19244e-05
46.85	7.85416e-11	-7.17879e-05	-7.17878e-05
46.94	6.41474e-11	-6.26779e-05	-6.26778e-05
47.03	5.20165e-11	-5.45203e-05	-5.45203e-05
47.12	4.1787e-11	-4.72247e-05	-4.72246e-05
47.21	3.29435e-11	-4.06861e-05	-4.0686e-05
47.3	2.53767e-11	-3.48489e-05	-3.48489e-05
47.39	1.8985e-11	-2.96611e-05	-2.96611e-05
47.48	1.36737e-11	-2.50739e-05	-2.50739e-05
47.57	9.35518e-12	-2.10418e-05	-2.10418e-05
47.66	5.9478e-12	-1.75221e-05	-1.75221e-05
47.75	3.37597e-12	-1.4475e-05	-1.4475e-05
47.84	1.56963e-12	-1.18635e-05	-1.18635e-05
47.93	4.64184e-13	-9.65304e-06	-9.65304e-06
48.02	-2.22045e-16	-7.81143e-06	-7.81143e-06
48.11	-2.22045e-16	-6.28487e-06	-6.28487e-06
48.2	-2.22045e-16	-4.96416e-06	-4.96416e-06
48.29	-2.22045e-16	-3.83303e-06	-3.83303e-06
48.38	-2.22045e-16	-2.87633e-06	-2.87633e-06
48.47	-2.22045e-16	-2.08e-06	-2.08e-06
48.56	-2.22045e-16	-1.43096e-06	-1.43096e-06
48.65	-2.22045e-16	-9.17059e-07	-9.17059e-07
48.74	-2.22045e-16	-5.27052e-07	-5.27052e-07
48.83	-2.22045e-16	-2.50514e-07	-2.50514e-07
48.92	-2.22045e-16	-7.78018e-08	-7.78018e-08
49.01	-2.22045e-16	0	-2.22045e-16
49.1	-2.22045e-16	0	-2.22045e-16
49.19	-2.22045e-16	0	-2.22045e-16
49.28	-2.22045e-16	0	-2.22045e-16
49.37	-2.22045e-16	0	-2.22045e-16
49.46	-2.22045e-16	0	-2.22045e-16
49.55	-2.22045e-16	0	-2.22045e-16
49.64	-2.22045e-16	0	-2.22045e-16
49.73	-2.22045e-16	0	-2.22045e-16
49.82	-2.22045e-16	0	-2.22045e-16
49.91	-2.22045e-16	0	-2.22045e-16
50	-2.22045e-16	0	-2.22045e-16
50.09	-2.22045e-16	0	-2.22045e-16
50.18	-2.22045e-16	0	-2.22045e-16
50.27	-2.22045e-16	0	-2.22045e-16
50.36	-2.22045e-16	0	-2.22045e-16
50.45	-2.22045e-16	0	-2.22045e-16
50.54	-2.22045e-16	0	-2.22045e-16
50.63	-2.22045e-16	0	-2.22045e-16
50.72	-2.22045e-16	0	-2.22045e-16
50.81	-2.22045e-16	0	-2.22045e-16
50.9	-2.22045e-16	0	-2.22045e-16
50.99	-2.22045e-16	0	-2.22045e-16
51.08	-2.22045e-16	0	-2.22045e-16
51.17	-2.22045e-16	0	-2.22045e-16
51.26	-2.22045e-16	0	-2.22045e-16
51.35	-2.22045e-16	0	-2.22045e-16
51.44	-2.22045e-16	0	-2.22045e-16
51.53	-2.22045e-16	0	-2.22045e-16
51.62	-2.22045e-16	0	-2.22045e-16
51.71	-2.22045e-16	0	-2.22045e-16
51.8	-2.22045e-16	0	-2.22045e-16
51.89	-2.22045e-16	0	-2.22045e-16
51.98	-2.22045e-16	0	-2.22045e-16
52.07	-2.22045e-16	0	-2.22045e-16
52.16	-2.22045e-16	0	-2.22045e-16
52.25	-2.22045e-16	0	-2.22045e-16
52.34	-2.22045e-16	0	-2.22045e-16
52.43	-2.22045e-16	0	-2.22045e-16
52.52	-2.22045e-16	0	-2.22045e-16
52.61	-2.22045e-16	0	-2.22045e-16
52.7	-2.22045e-16	0	-2.22045e-16
52.79	-2.22045e-16	0	-2.22045e-16
52.88	-2.22045e-16	0	-2.22045e-16
52.97	-2.22045e-16	0	-2.22045e-16
53.06	-2.22045e-16	0	-2.22045e-16
53.15	-2.22045e-16	0	-2.22045e-16
53.24	-2.22045e-16	0	-2.22045e-16
53.33	-2.22045e-16	0	-2.22045e-16
53.42	-2.22045e-16	0	-2.22045e-16
53.51	-2.22045e-16	0	-2.22045e-16
53.6	-2.22045e-16	0	-2.22045e-16
53.69	-2.22045e-16	0	-2.22045e-16
53.78	-2.22045e-16	0	-2.22045e-16
53.87	-2.22045e-16	0	-2.22045e-16
53.96	-2.22045e-16	0	-2.22045e-16
54.05	-2.22045e-16	0	-2.22045e-16
54.14	-2.22045e-16	0	-2.22045e-16
54.23	-2.22045e-16	0	-2.22045e-16
54.32	-2.22045e-16	0	-2.22045e-16
54.41	-2.22045e-16	0	-2.22045e-16
54.5	-2.22045e-16	0	-2.22045e-16
54.59	-2.22045e-16	0	-2.22045e-16
54.68	-2.22045e-16	0	-2.22045e-16
54.77	-2.22045e-16	0	-2.22045e-16
54.86	-2.22045e-16	0	-2.22045e-16
54.95	-2.22045e-16	0	-2.22045e-16
55.04	-2.22045e-16	0	-2.22045e-16
55.13	-2.22045e-16	0	-2.22045e-16
55.22	-2.22045e-16	0	-2.22045e-16
55.31	-2.22045e-16	0	-2.22045e-16
55.4	-2.22045e-16	0	-2.22045e-16
55.49	-2.22045e-16	0	-2.22045e-16
